DEMO Spectrum
---------------------------
1200.9644  2 
174.9075 1035 
211.0264 6567 
211.6826 1319 
213.8899 1230 
227.9178 18712 
253.9487 1249 
254.9398 1422 
257.1846 1734 
272.2260 16875 
272.9597 1393 
277.8854 3797 
279.0577 749 
293.9499  1284 
306.9672 2542 
311.0650 1449 
323.2950 2288 
324.2823 776 
325.1381 677 
326.9114 2324 
328.0692 8993 
329.1470 3092 
338.9370 1354 
342.0814 18013 
344.1150 1860 
354.7826 1260 
367.2009 1312 
371.2244 1051 
378.9969 2004 
379.8792 2432 
384.0845 619 
395.4149 1588 
396.0560 5830 
397.1364 2054 
398.1593 806 
400.6921 2770 
408.1284 1092 
412.9095 9897 
414.4118 1854 
418.5007 3994 
419.2102 38738 
420.2545 8537 
421.3602 1011 
423.2668 2970 
424.1198 1045 
427.6536 4158 
429.2819 504
434.3001  1794 
436.4155 1204 
437.2543 838 
441.1965 12420 
442.1170 595 
445.1638 704 
454.6744  1266 
457.3044 1734 
460.4036 1035 
469.2339 4573 
470.0485 3977 
470.6666 1 
476.4127 1906 
477.3356 5760 
484.1135 4424 
486.1827 8484 
486.8666 1 
487.5472 1146 
496.4021 1260 
504.3026 1353 
508.9694 4813 
512.3000 5324 
515.9523 1442 
517.9304 7989 
520.8052 1840 
526.5730 7917 
528.2014 1507 
531.1074 4003 
534.7244 5933 
535.3506 2191 
536.3828 969 
539.6508 3464 
540.6526 1917 
541.6851 8863 
543.0483 8891 
544.1423 3302 
548.6133 20650 
549.3352 3583 
552.0760 6717 
552.8655 660 
558.2955 1931 
560.4250 3650 
561.2302 4572 
565.8384 3987 
566.6000 1 
568.8342 6144 
570.1624 2932 
574.3430 15817 
575.2000 1 
577.4043 4608 
581.2183 1341 
582.6765 35926 
583.5793 16768 
586.6401 3562 
587.4868 864 
588.1921 3041 
591.3142 30881 
591.9661 1233 
621.7781 907 
649.4548 1041 
650.2228 3278 
666.2826 5731 
667.2937 815 
672.8632 1528 
685.2893 2078 
694.2102 1163 
698.2191 1627 
701.4121 5124 
718.5337 2025 
719.1709 1960 
726.4369 1704 
730.0813 1606 
737.2881 987 
740.5872 2723 
741.5240 1309 
742.6527 1158 
746.2101 8231 
747.2196 2348 
748.2234 4029 
751.2317 1091 
754.3239 2253 
758.3892 96974 
759.3987 19806 
760.2777 7233 
763.1479 13512 
764.2150 2471 
780.3092 1995 
781.3524 1711 
782.6013 1574 
784.0406 1443 
797.2129 1256 
802.5862 1523 
811.2881 987 
836.3486 1202 
840.6956 1553 
846.9033 1103 
850.3569 1772 
854.4581 1955 
856.7135 3679 
857.6989 12387 
860.3877 4949 
861.1941 649 
876.1364 734 
893.3763 1331 
894.3293 4105 
895.3176 3438 
909.9225 2149 
910.5831 516 
911.4399 2576 
927.3518 2049 
953.4058 2752 
954.2449 2659 
955.8171 1568 
968.6898 1199 
971.4584 9244 
972.4281 5441 
973.5671 2215 
980.8761 950 
1033.6460 2589 
1096.3340 2517 
